 Mie Scattering in Absorbing Medium 
 size parameter = 10.000000
 msphere        = 1.500000  0.100000 
 mmed           = 1.000000  0.100000 

 Qext, Qsca, Qabs, g, Ii, 1.222426 0.196729 1.025697 0.567603 2.097264


 Angle......phase 
0.000000 61.801052 
0.360721 61.742184 
0.721443 61.565418 
1.082164 61.272167 
1.442886 60.863659 
1.803607 60.342323 
2.164329 59.711044 
2.525050 58.972790 
2.885772 58.131996 
3.246493 57.192738 
3.607214 56.159988 
3.967936 55.039230 
4.328657 53.836021 
4.689379 52.556492 
5.050100 51.207130 
5.410822 49.794315 
5.771543 48.324936 
6.132264 46.805889 
6.492986 45.244232 
6.853707 43.646923 
7.214429 42.021202 
7.575150 40.373661 
7.935872 38.711361 
8.296593 37.040981 
8.657315 35.368832 
9.018036 33.701347 
9.378757 32.044254 
9.739479 30.403261 
10.100200 28.783760 
10.460922 27.190559 
10.821643 25.628340 
11.182365 24.101143 
11.543086 22.612726 
11.903807 21.166601 
12.264529 19.765524 
12.625250 18.412130 
12.985972 17.108482 
13.346693 15.856283 
13.707415 14.656978 
14.068136 13.511481 
14.428858 12.420374 
14.789579 11.384032 
15.150300 10.402399 
15.511022 9.475136 
15.871743 8.601752 
16.232465 7.781437 
16.593186 7.013162 
16.953908 6.295718 
17.314629 5.627811 
17.675351 5.007911 
18.036072 4.434452 
18.396793 3.905747 
18.757515 3.420053 
19.118236 2.975564 
19.478958 2.570477 
19.839679 2.202935 
20.200401 1.871144 
20.561122 1.573261 
20.921843 1.307509 
21.282565 1.072143 
21.643286 0.865439 
22.004008 0.685748 
22.364729 0.531450 
22.725451 0.400986 
23.086172 0.292853 
23.446894 0.205596 
23.807615 0.137813 
24.168336 0.088150 
24.529058 0.055300 
24.889779 0.037998 
25.250501 0.035015 
25.611222 0.045158 
25.971944 0.067264 
26.332665 0.100197 
26.693386 0.142843 
27.054108 0.194109 
27.414829 0.252919 
27.775551 0.318216 
28.136272 0.388957 
28.496994 0.464113 
28.857715 0.542671 
29.218437 0.623638 
29.579158 0.706040 
29.939879 0.788924 
30.300601 0.871362 
30.661322 0.952460 
31.022044 1.031356 
31.382765 1.107226 
31.743487 1.179296 
32.104208 1.246836 
32.464930 1.309179 
32.825651 1.365711 
33.186372 1.415890 
33.547094 1.459240 
33.907815 1.495364 
34.268537 1.523940 
34.629258 1.544729 
34.989980 1.557576 
35.350701 1.562409 
35.711422 1.559241 
36.072144 1.548174 
36.432865 1.529386 
36.793587 1.503142 
37.154308 1.469781 
37.515030 1.429717 
37.875751 1.383431 
38.236473 1.331464 
38.597194 1.274414 
38.957915 1.212927 
39.318637 1.147687 
39.679358 1.079409 
40.040080 1.008832 
40.400801 0.936704 
40.761523 0.863782 
41.122244 0.790813 
41.482965 0.718533 
41.843687 0.647653 
42.204408 0.578853 
42.565130 0.512776 
42.925851 0.450013 
43.286573 0.391108 
43.647294 0.336543 
44.008016 0.286738 
44.368737 0.242044 
44.729458 0.202742 
45.090180 0.169041 
45.450901 0.141076 
45.811623 0.118907 
46.172344 0.102523 
46.533066 0.091843 
46.893787 0.086714 
47.254509 0.086924 
47.615230 0.092197 
47.975951 0.102204 
48.336673 0.116567 
48.697394 0.134865 
49.058116 0.156642 
49.418837 0.181411 
49.779559 0.208666 
50.140280 0.237885 
50.501001 0.268540 
50.861723 0.300102 
51.222444 0.332052 
51.583166 0.363883 
51.943887 0.395109 
52.304609 0.425271 
52.665330 0.453941 
53.026052 0.480729 
53.386773 0.505285 
53.747494 0.527302 
54.108216 0.546522 
54.468937 0.562735 
54.829659 0.575781 
55.190380 0.585549 
55.551102 0.591981 
55.911823 0.595067 
56.272545 0.594844 
56.633266 0.591396 
56.993987 0.584848 
57.354709 0.575367 
57.715430 0.563152 
58.076152 0.548438 
58.436873 0.531482 
58.797595 0.512568 
59.158316 0.491995 
59.519037 0.470076 
59.879759 0.447130 
60.240480 0.423480 
60.601202 0.399449 
60.961923 0.375351 
61.322645 0.351491 
61.683366 0.328159 
62.044088 0.305628 
62.404809 0.284147 
62.765530 0.263945 
63.126252 0.245222 
63.486973 0.228150 
63.847695 0.212872 
64.208416 0.199502 
64.569138 0.188120 
64.929859 0.178777 
65.290580 0.171496 
65.651302 0.166266 
66.012023 0.163051 
66.372745 0.161789 
66.733466 0.162392 
67.094188 0.164750 
67.454909 0.168735 
67.815631 0.174200 
68.176352 0.180986 
68.537073 0.188921 
68.897795 0.197825 
69.258516 0.207513 
69.619238 0.217798 
69.979959 0.228493 
70.340681 0.239414 
70.701402 0.250382 
71.062124 0.261228 
71.422845 0.271790 
71.783566 0.281921 
72.144288 0.291486 
72.505009 0.300365 
72.865731 0.308455 
73.226452 0.315667 
73.587174 0.321934 
73.947895 0.327202 
74.308616 0.331437 
74.669338 0.334621 
75.030059 0.336755 
75.390781 0.337853 
75.751502 0.337945 
76.112224 0.337074 
76.472945 0.335298 
76.833667 0.332684 
77.194388 0.329309 
77.555109 0.325257 
77.915831 0.320619 
78.276552 0.315492 
78.637274 0.309974 
78.997995 0.304165 
79.358717 0.298165 
79.719438 0.292072 
80.080159 0.285980 
80.440881 0.279982 
80.801602 0.274161 
81.162324 0.268597 
81.523045 0.263361 
81.883767 0.258516 
82.244488 0.254116 
82.605210 0.250207 
82.965931 0.246825 
83.326652 0.243996 
83.687374 0.241739 
84.048095 0.240061 
84.408817 0.238963 
84.769538 0.238435 
85.130260 0.238461 
85.490981 0.239017 
85.851703 0.240074 
86.212424 0.241595 
86.573145 0.243542 
86.933867 0.245868 
87.294588 0.248528 
87.655310 0.251471 
88.016031 0.254647 
88.376753 0.258005 
88.737474 0.261495 
89.098195 0.265066 
89.458917 0.268672 
89.819638 0.272267 
90.180360 0.275809 
90.541081 0.279261 
90.901803 0.282587 
91.262524 0.285757 
91.623246 0.288747 
91.983967 0.291534 
92.344688 0.294105 
92.705410 0.296446 
93.066131 0.298552 
93.426853 0.300420 
93.787574 0.302053 
94.148296 0.303458 
94.509017 0.304644 
94.869738 0.305625 
95.230460 0.306417 
95.591181 0.307039 
95.951903 0.307513 
96.312624 0.307860 
96.673346 0.308103 
97.034067 0.308269 
97.394789 0.308380 
97.755510 0.308461 
98.116231 0.308536 
98.476953 0.308626 
98.837674 0.308755 
99.198396 0.308940 
99.559117 0.309200 
99.919839 0.309550 
100.280560 0.310004 
100.641282 0.310573 
101.002003 0.311264 
101.362724 0.312085 
101.723446 0.313038 
102.084167 0.314125 
102.444889 0.315345 
102.805610 0.316693 
103.166332 0.318166 
103.527053 0.319755 
103.887774 0.321452 
104.248496 0.323246 
104.609217 0.325127 
104.969939 0.327082 
105.330660 0.329098 
105.691382 0.331163 
106.052103 0.333262 
106.412825 0.335384 
106.773546 0.337516 
107.134267 0.339645 
107.494989 0.341760 
107.855710 0.343853 
108.216432 0.345913 
108.577153 0.347933 
108.937875 0.349907 
109.298596 0.351830 
109.659317 0.353700 
110.020039 0.355514 
110.380760 0.357274 
110.741482 0.358979 
111.102203 0.360633 
111.462925 0.362242 
111.823646 0.363809 
112.184368 0.365342 
112.545089 0.366849 
112.905810 0.368338 
113.266532 0.369819 
113.627253 0.371301 
113.987975 0.372795 
114.348696 0.374310 
114.709418 0.375856 
115.070139 0.377444 
115.430861 0.379083 
115.791582 0.380781 
116.152303 0.382546 
116.513025 0.384386 
116.873746 0.386307 
117.234468 0.388314 
117.595189 0.390409 
117.955911 0.392596 
118.316632 0.394876 
118.677353 0.397248 
119.038075 0.399711 
119.398796 0.402260 
119.759518 0.404892 
120.120239 0.407601 
120.480961 0.410379 
120.841682 0.413218 
121.202404 0.416109 
121.563125 0.419042 
121.923846 0.422005 
122.284568 0.424987 
122.645289 0.427976 
123.006011 0.430959 
123.366732 0.433923 
123.727454 0.436857 
124.088175 0.439746 
124.448896 0.442581 
124.809618 0.445348 
125.170339 0.448037 
125.531061 0.450638 
125.891782 0.453142 
126.252504 0.455542 
126.613225 0.457830 
126.973947 0.460001 
127.334668 0.462052 
127.695389 0.463980 
128.056111 0.465784 
128.416832 0.467464 
128.777554 0.469024 
129.138275 0.470467 
129.498997 0.471798 
129.859718 0.473025 
130.220440 0.474156 
130.581161 0.475200 
130.941882 0.476169 
131.302604 0.477075 
131.663325 0.477931 
132.024047 0.478751 
132.384768 0.479550 
132.745490 0.480344 
133.106211 0.481149 
133.466932 0.481979 
133.827654 0.482853 
134.188375 0.483786 
134.549097 0.484793 
134.909818 0.485891 
135.270540 0.487093 
135.631261 0.488415 
135.991983 0.489869 
136.352704 0.491467 
136.713425 0.493220 
137.074147 0.495138 
137.434868 0.497228 
137.795590 0.499497 
138.156311 0.501950 
138.517033 0.504591 
138.877754 0.507420 
139.238476 0.510437 
139.599197 0.513641 
139.959918 0.517028 
140.320640 0.520591 
140.681361 0.524325 
141.042083 0.528219 
141.402804 0.532264 
141.763526 0.536447 
142.124247 0.540756 
142.484968 0.545175 
142.845690 0.549689 
143.206411 0.554282 
143.567133 0.558934 
143.927854 0.563629 
144.288576 0.568347 
144.649297 0.573068 
145.010019 0.577772 
145.370740 0.582441 
145.731461 0.587054 
146.092183 0.591590 
146.452904 0.596032 
146.813626 0.600360 
147.174347 0.604555 
147.535069 0.608601 
147.895790 0.612481 
148.256511 0.616178 
148.617233 0.619679 
148.977954 0.622970 
149.338676 0.626039 
149.699397 0.628875 
150.060119 0.631469 
150.420840 0.633812 
150.781562 0.635899 
151.142283 0.637724 
151.503004 0.639284 
151.863726 0.640576 
152.224447 0.641600 
152.585169 0.642358 
152.945890 0.642852 
153.306612 0.643084 
153.667333 0.643062 
154.028055 0.642790 
154.388776 0.642277 
154.749497 0.641532 
155.110219 0.640565 
155.470940 0.639385 
155.831662 0.638007 
156.192383 0.636442 
156.553105 0.634704 
156.913826 0.632806 
157.274547 0.630765 
157.635269 0.628594 
157.995990 0.626310 
158.356712 0.623928 
158.717433 0.621465 
159.078155 0.618937 
159.438876 0.616359 
159.799598 0.613749 
160.160319 0.611122 
160.521040 0.608494 
160.881762 0.605880 
161.242483 0.603296 
161.603205 0.600756 
161.963926 0.598275 
162.324648 0.595865 
162.685369 0.593540 
163.046090 0.591311 
163.406812 0.589191 
163.767533 0.587189 
164.128255 0.585315 
164.488976 0.583578 
164.849698 0.581985 
165.210419 0.580543 
165.571141 0.579259 
165.931862 0.578135 
166.292583 0.577177 
166.653305 0.576386 
167.014026 0.575764 
167.374748 0.575310 
167.735469 0.575025 
168.096191 0.574905 
168.456912 0.574948 
168.817634 0.575150 
169.178355 0.575505 
169.539076 0.576008 
169.899798 0.576651 
170.260519 0.577425 
170.621241 0.578323 
170.981962 0.579335 
171.342684 0.580448 
171.703405 0.581654 
172.064126 0.582940 
172.424848 0.584293 
172.785569 0.585702 
173.146291 0.587153 
173.507012 0.588632 
173.867734 0.590128 
174.228455 0.591626 
174.589177 0.593113 
174.949898 0.594576 
175.310619 0.596002 
175.671341 0.597379 
176.032062 0.598695 
176.392784 0.599937 
176.753505 0.601096 
177.114227 0.602162 
177.474948 0.603125 
177.835669 0.603978 
178.196391 0.604712 
178.557112 0.605321 
178.917834 0.605801 
179.278555 0.606145 
179.639277 0.606354 
179.999998 0.606424 
